  T [K]   P [MPa]  h_l [kJ/kg] h_v [kJ/kg]
 373.150   0.101    2675.572     419.099
 389.817   0.179    2701.054     489.625
 406.483   0.298    2724.633     560.634
 423.150   0.476    2745.919     632.252
 439.817   0.730    2764.528     704.626
 456.483   1.082    2780.059     777.934
 473.150   1.555    2792.062     852.393
 489.817   2.175    2800.004     928.269
 506.483   2.972    2803.247    1005.893
 523.150   3.976    2801.012    1085.687
 539.817   5.222    2792.314    1168.202
 556.483   6.745    2775.820    1254.194
 573.150   8.588    2749.574    1344.771
